Sample Name, Eq3S1.sca
Time, October 29 15:21:45 2021
Operator, Jose Mendez
Lamp, 0
Slit,0.0
Scan From, 1100.0nm
Scan To, 190.0nm
Scan Step, 1.0nm
Sample Filter, 10
memo, 
WL(nm), Abs, T%
190.0, 1.9264, 1.18
191.0, 1.7978, 1.59
192.0, 1.7341, 1.84
193.0, 1.7352, 1.84
194.0, 1.7199, 1.91
195.0, 1.6984, 2.00
196.0, 1.5027, 3.14
197.0, 1.5227, 3.00
198.0, 1.5552, 2.79
199.0, 1.5644, 2.73
200.0, 1.5856, 2.60
201.0, 1.6172, 2.41
202.0, 1.5898, 2.57
203.0, 1.3001, 5.01
204.0, 1.3936, 4.04
205.0, 1.4031, 3.95
206.0, 1.3822, 4.15
207.0, 1.3959, 4.02
208.0, 1.4271, 3.74
209.0, 1.3964, 4.01
210.0, 1.3938, 4.04
211.0, 1.4048, 3.94
212.0, 1.4397, 3.63
213.0, 1.4686, 3.40
214.0, 1.4424, 3.61
215.0, 1.4359, 3.67
216.0, 1.4476, 3.57
217.0, 1.4167, 3.83
218.0, 1.4456, 3.58
219.0, 1.5002, 3.16
220.0, 1.4276, 3.74
221.0, 1.4567, 3.49
222.0, 1.4830, 3.29
223.0, 1.4801, 3.31
224.0, 1.4666, 3.41
225.0, 1.4269, 3.74
226.0, 1.4660, 3.42
227.0, 1.4538, 3.52
228.0, 1.4820, 3.30
229.0, 1.5282, 2.96
230.0, 1.5113, 3.08
231.0, 1.5469, 2.84
232.0, 1.5172, 3.04
233.0, 1.5421, 2.87
234.0, 1.5563, 2.78
235.0, 1.5737, 2.67
236.0, 1.5686, 2.70
237.0, 1.6055, 2.48
238.0, 1.6425, 2.28
239.0, 1.7163, 1.92
240.0, 1.7841, 1.64
241.0, 1.8696, 1.35
242.0, 1.9511, 1.12
243.0, 2.0550, 0.88
244.0, 2.1799, 0.66
245.0, 2.2862, 0.52
246.0, 2.4003, 0.40
247.0, 2.5112, 0.31
248.0, 1.3667, 4.30
249.0, 0.7208, 19.02
250.0, 0.5149, 30.56
251.0, 0.4084, 39.05
252.0, 0.3349, 46.25
253.0, 0.2843, 51.96
254.0, 0.2521, 55.96
255.0, 0.2257, 59.48
256.0, 0.2055, 62.30
257.0, 0.1892, 64.69
258.0, 0.1748, 66.87
259.0, 0.1635, 68.63
260.0, 0.1561, 69.80
261.0, 0.1482, 71.08
262.0, 0.1404, 72.39
263.0, 0.1349, 73.29
264.0, 0.1290, 74.31
265.0, 0.1233, 75.28
266.0, 0.1211, 75.67
267.0, 0.1169, 76.39
268.0, 0.1156, 76.63
269.0, 0.1251, 74.97
270.0, 0.0891, 81.44
271.0, 0.1031, 78.86
272.0, 0.1008, 79.29
273.0, 0.0981, 79.79
274.0, 0.0950, 80.36
275.0, 0.0923, 80.86
276.0, 0.0896, 81.35
277.0, 0.0875, 81.74
278.0, 0.0853, 82.17
279.0, 0.0836, 82.49
280.0, 0.0815, 82.88
281.0, 0.0799, 83.19
282.0, 0.0784, 83.48
283.0, 0.0764, 83.86
284.0, 0.0748, 84.17
285.0, 0.0732, 84.48
286.0, 0.0714, 84.83
287.0, 0.0701, 85.09
288.0, 0.0687, 85.38
289.0, 0.0671, 85.69
290.0, 0.0662, 85.87
291.0, 0.0647, 86.16
292.0, 0.0634, 86.41
293.0, 0.0623, 86.63
294.0, 0.0612, 86.85
295.0, 0.0599, 87.11
296.0, 0.0589, 87.33
297.0, 0.0578, 87.54
298.0, 0.0567, 87.76
299.0, 0.0562, 87.87
300.0, 0.0555, 88.01
301.0, 0.0546, 88.19
302.0, 0.0538, 88.34
303.0, 0.0532, 88.47
304.0, 0.0524, 88.63
305.0, 0.0518, 88.76
306.0, 0.0511, 88.90
307.0, 0.0503, 89.06
308.0, 0.0494, 89.25
309.0, 0.0489, 89.36
310.0, 0.0482, 89.51
311.0, 0.0478, 89.58
312.0, 0.0471, 89.73
313.0, 0.0465, 89.86
314.0, 0.0459, 89.98
315.0, 0.0450, 90.15
316.0, 0.0450, 90.17
317.0, 0.0445, 90.26
318.0, 0.0439, 90.38
319.0, 0.0434, 90.48
320.0, 0.0431, 90.56
321.0, 0.0427, 90.65
322.0, 0.0420, 90.78
323.0, 0.0416, 90.86
324.0, 0.0414, 90.91
325.0, 0.0410, 90.98
326.0, 0.0406, 91.08
327.0, 0.0403, 91.15
328.0, 0.0401, 91.18
329.0, 0.0398, 91.25
330.0, 0.0394, 91.33
331.0, 0.0392, 91.37
332.0, 0.0393, 91.36
333.0, 0.0389, 91.44
334.0, 0.0391, 91.38
335.0, 0.0399, 91.21
336.0, 0.0355, 92.14
337.0, 0.0381, 91.59
338.0, 0.0382, 91.58
339.0, 0.0384, 91.54
340.0, 0.0461, 89.92
341.0, 0.0479, 89.55
342.0, 0.0462, 89.90
343.0, 0.0446, 90.25
344.0, 0.0436, 90.45
345.0, 0.0429, 90.60
346.0, 0.0419, 90.79
347.0, 0.0414, 90.91
348.0, 0.0401, 91.18
349.0, 0.0399, 91.22
350.0, 0.0397, 91.26
351.0, 0.0386, 91.49
352.0, 0.0376, 91.71
353.0, 0.0374, 91.75
354.0, 0.0369, 91.85
355.0, 0.0363, 91.98
356.0, 0.0361, 92.02
357.0, 0.0362, 92.01
358.0, 0.0355, 92.16
359.0, 0.0352, 92.22
360.0, 0.0348, 92.29
361.0, 0.0350, 92.25
362.0, 0.0349, 92.29
363.0, 0.0348, 92.29
364.0, 0.0344, 92.39
365.0, 0.0346, 92.33
366.0, 0.0348, 92.29
367.0, 0.0355, 92.15
368.0, 0.0358, 92.09
369.0, 0.0359, 92.07
370.0, 0.0363, 91.97
371.0, 0.0349, 92.27
372.0, 0.0341, 92.46
373.0, 0.0344, 92.38
374.0, 0.0334, 92.59
375.0, 0.0328, 92.73
376.0, 0.0325, 92.79
377.0, 0.0324, 92.81
378.0, 0.0314, 93.04
379.0, 0.0312, 93.08
380.0, 0.0304, 93.25
381.0, 0.0299, 93.35
382.0, 0.0298, 93.38
383.0, 0.0292, 93.51
384.0, 0.0291, 93.52
385.0, 0.0282, 93.72
386.0, 0.0277, 93.82
387.0, 0.0275, 93.87
388.0, 0.0270, 93.97
389.0, 0.0268, 94.01
390.0, 0.0263, 94.12
391.0, 0.0261, 94.17
392.0, 0.0260, 94.19
393.0, 0.0258, 94.24
394.0, 0.0255, 94.30
395.0, 0.0251, 94.39
396.0, 0.0250, 94.40
397.0, 0.0244, 94.53
398.0, 0.0241, 94.60
399.0, 0.0238, 94.67
400.0, 0.0237, 94.69
401.0, 0.0238, 94.66
402.0, 0.0235, 94.73
403.0, 0.0234, 94.75
404.0, 0.0230, 94.84
405.0, 0.0226, 94.93
406.0, 0.0225, 94.96
407.0, 0.0225, 94.94
408.0, 0.0223, 95.00
409.0, 0.0223, 94.99
410.0, 0.0219, 95.08
411.0, 0.0218, 95.10
412.0, 0.0217, 95.13
413.0, 0.0216, 95.16
414.0, 0.0216, 95.14
415.0, 0.0212, 95.24
416.0, 0.0210, 95.29
417.0, 0.0207, 95.35
418.0, 0.0205, 95.39
419.0, 0.0202, 95.45
420.0, 0.0202, 95.45
421.0, 0.0202, 95.47
422.0, 0.0200, 95.49
423.0, 0.0200, 95.50
424.0, 0.0200, 95.50
425.0, 0.0200, 95.51
426.0, 0.0199, 95.52
427.0, 0.0198, 95.54
428.0, 0.0197, 95.56
429.0, 0.0195, 95.60
430.0, 0.0194, 95.63
431.0, 0.0193, 95.66
432.0, 0.0195, 95.61
433.0, 0.0193, 95.65
434.0, 0.0194, 95.64
435.0, 0.0193, 95.66
436.0, 0.0191, 95.70
437.0, 0.0189, 95.74
438.0, 0.0189, 95.74
439.0, 0.0190, 95.72
440.0, 0.0191, 95.71
441.0, 0.0189, 95.74
442.0, 0.0191, 95.70
443.0, 0.0193, 95.65
444.0, 0.0189, 95.75
445.0, 0.0191, 95.70
446.0, 0.0193, 95.66
447.0, 0.0193, 95.66
448.0, 0.0193, 95.66
449.0, 0.0194, 95.63
450.0, 0.0191, 95.70
451.0, 0.0149, 96.63
452.0, 0.0148, 96.64
453.0, 0.0146, 96.69
454.0, 0.0140, 96.84
455.0, 0.0148, 96.66
456.0, 0.0145, 96.71
457.0, 0.0140, 96.82
458.0, 0.0139, 96.84
459.0, 0.0139, 96.85
460.0, 0.0135, 96.94
461.0, 0.0135, 96.93
462.0, 0.0138, 96.87
463.0, 0.0131, 97.04
464.0, 0.0132, 97.00
465.0, 0.0130, 97.05
466.0, 0.0131, 97.04
467.0, 0.0129, 97.08
468.0, 0.0131, 97.02
469.0, 0.0128, 97.10
470.0, 0.0125, 97.17
471.0, 0.0125, 97.15
472.0, 0.0123, 97.20
473.0, 0.0125, 97.15
474.0, 0.0120, 97.27
475.0, 0.0119, 97.29
476.0, 0.0122, 97.23
477.0, 0.0121, 97.26
478.0, 0.0118, 97.32
479.0, 0.0120, 97.28
480.0, 0.0121, 97.26
481.0, 0.0118, 97.33
482.0, 0.0118, 97.31
483.0, 0.0113, 97.43
484.0, 0.0114, 97.41
485.0, 0.0114, 97.41
486.0, 0.0112, 97.46
487.0, 0.0112, 97.44
488.0, 0.0112, 97.46
489.0, 0.0111, 97.47
490.0, 0.0108, 97.53
491.0, 0.0109, 97.52
492.0, 0.0105, 97.60
493.0, 0.0104, 97.63
494.0, 0.0103, 97.67
495.0, 0.0106, 97.60
496.0, 0.0106, 97.58
497.0, 0.0108, 97.54
498.0, 0.0109, 97.53
499.0, 0.0104, 97.64
500.0, 0.0105, 97.62
501.0, 0.0103, 97.65
502.0, 0.0103, 97.65
503.0, 0.0102, 97.67
504.0, 0.0102, 97.67
505.0, 0.0100, 97.72
506.0, 0.0101, 97.70
507.0, 0.0102, 97.68
508.0, 0.0099, 97.74
509.0, 0.0098, 97.77
510.0, 0.0098, 97.77
511.0, 0.0098, 97.76
512.0, 0.0097, 97.79
513.0, 0.0097, 97.79
514.0, 0.0096, 97.82
515.0, 0.0093, 97.88
516.0, 0.0095, 97.85
517.0, 0.0094, 97.85
518.0, 0.0094, 97.86
519.0, 0.0091, 97.93
520.0, 0.0094, 97.87
521.0, 0.0094, 97.86
522.0, 0.0090, 97.94
523.0, 0.0090, 97.94
524.0, 0.0091, 97.93
525.0, 0.0089, 97.96
526.0, 0.0090, 97.94
527.0, 0.0091, 97.92
528.0, 0.0093, 97.87
529.0, 0.0089, 97.97
530.0, 0.0089, 97.98
531.0, 0.0089, 97.98
532.0, 0.0090, 97.96
533.0, 0.0086, 98.05
534.0, 0.0084, 98.09
535.0, 0.0085, 98.05
536.0, 0.0084, 98.08
537.0, 0.0088, 97.99
538.0, 0.0085, 98.07
539.0, 0.0086, 98.05
540.0, 0.0086, 98.04
541.0, 0.0084, 98.09
542.0, 0.0086, 98.03
543.0, 0.0088, 98.00
544.0, 0.0085, 98.06
545.0, 0.0087, 98.02
546.0, 0.0086, 98.03
547.0, 0.0087, 98.03
548.0, 0.0087, 98.02
549.0, 0.0084, 98.09
550.0, 0.0085, 98.07
551.0, 0.0086, 98.04
552.0, 0.0082, 98.13
553.0, 0.0082, 98.13
554.0, 0.0081, 98.16
555.0, 0.0080, 98.19
556.0, 0.0081, 98.15
557.0, 0.0078, 98.22
558.0, 0.0077, 98.25
559.0, 0.0077, 98.25
560.0, 0.0075, 98.29
561.0, 0.0076, 98.26
562.0, 0.0076, 98.27
563.0, 0.0073, 98.32
564.0, 0.0075, 98.28
565.0, 0.0076, 98.26
566.0, 0.0078, 98.21
567.0, 0.0077, 98.25
568.0, 0.0079, 98.19
569.0, 0.0078, 98.22
570.0, 0.0078, 98.21
571.0, 0.0082, 98.14
572.0, 0.0081, 98.16
573.0, 0.0079, 98.19
574.0, 0.0080, 98.18
575.0, 0.0081, 98.15
576.0, 0.0081, 98.15
577.0, 0.0081, 98.14
578.0, 0.0080, 98.17
579.0, 0.0080, 98.17
580.0, 0.0083, 98.11
581.0, 0.0081, 98.15
582.0, 0.0083, 98.11
583.0, 0.0077, 98.25
584.0, 0.0080, 98.17
585.0, 0.0079, 98.20
586.0, 0.0055, 98.74
587.0, 0.0056, 98.73
588.0, 0.0058, 98.67
589.0, 0.0055, 98.75
590.0, 0.0055, 98.75
591.0, 0.0055, 98.73
592.0, 0.0056, 98.72
593.0, 0.0055, 98.75
594.0, 0.0053, 98.79
595.0, 0.0049, 98.88
596.0, 0.0052, 98.80
597.0, 0.0051, 98.83
598.0, 0.0050, 98.85
599.0, 0.0054, 98.77
600.0, 0.0053, 98.80
601.0, 0.0054, 98.78
602.0, 0.0052, 98.82
603.0, 0.0054, 98.77
604.0, 0.0052, 98.82
605.0, 0.0053, 98.80
606.0, 0.0054, 98.77
607.0, 0.0056, 98.71
608.0, 0.0053, 98.78
609.0, 0.0054, 98.77
610.0, 0.0052, 98.81
611.0, 0.0052, 98.80
612.0, 0.0056, 98.72
613.0, 0.0053, 98.79
614.0, 0.0053, 98.78
615.0, 0.0055, 98.73
616.0, 0.0055, 98.74
617.0, 0.0059, 98.66
618.0, 0.0053, 98.78
619.0, 0.0055, 98.75
620.0, 0.0057, 98.69
621.0, 0.0054, 98.77
622.0, 0.0054, 98.76
623.0, 0.0056, 98.72
624.0, 0.0054, 98.76
625.0, 0.0053, 98.78
626.0, 0.0054, 98.75
627.0, 0.0053, 98.79
628.0, 0.0054, 98.77
629.0, 0.0053, 98.78
630.0, 0.0052, 98.82
631.0, 0.0053, 98.79
632.0, 0.0052, 98.81
633.0, 0.0052, 98.82
634.0, 0.0056, 98.71
635.0, 0.0053, 98.79
636.0, 0.0057, 98.69
637.0, 0.0054, 98.76
638.0, 0.0057, 98.70
639.0, 0.0057, 98.70
640.0, 0.0055, 98.73
641.0, 0.0055, 98.74
642.0, 0.0057, 98.68
643.0, 0.0053, 98.78
644.0, 0.0057, 98.69
645.0, 0.0055, 98.73
646.0, 0.0051, 98.83
647.0, 0.0052, 98.81
648.0, 0.0051, 98.83
649.0, 0.0055, 98.74
650.0, 0.0054, 98.77
651.0, 0.0053, 98.80
652.0, 0.0054, 98.77
653.0, 0.0054, 98.77
654.0, 0.0051, 98.82
655.0, 0.0054, 98.76
656.0, 0.0050, 98.86
657.0, 0.0046, 98.94
658.0, 0.0051, 98.84
659.0, 0.0050, 98.85
660.0, 0.0052, 98.82
661.0, 0.0051, 98.82
662.0, 0.0051, 98.83
663.0, 0.0051, 98.84
664.0, 0.0053, 98.80
665.0, 0.0051, 98.83
666.0, 0.0053, 98.78
667.0, 0.0052, 98.81
668.0, 0.0050, 98.86
669.0, 0.0052, 98.82
670.0, 0.0052, 98.81
671.0, 0.0050, 98.86
672.0, 0.0045, 98.97
673.0, 0.0049, 98.87
674.0, 0.0048, 98.89
675.0, 0.0051, 98.84
676.0, 0.0046, 98.94
677.0, 0.0047, 98.92
678.0, 0.0047, 98.93
679.0, 0.0047, 98.92
680.0, 0.0043, 99.01
681.0, 0.0043, 99.01
682.0, 0.0046, 98.95
683.0, 0.0045, 98.97
684.0, 0.0048, 98.89
685.0, 0.0045, 98.98
686.0, 0.0043, 99.01
687.0, 0.0045, 98.96
688.0, 0.0042, 99.04
689.0, 0.0043, 99.01
690.0, 0.0042, 99.04
691.0, 0.0046, 98.96
692.0, 0.0042, 99.05
693.0, 0.0043, 99.02
694.0, 0.0042, 99.05
695.0, 0.0041, 99.06
696.0, 0.0043, 99.03
697.0, 0.0042, 99.03
698.0, 0.0043, 99.01
699.0, 0.0041, 99.05
700.0, 0.0043, 99.02
701.0, 0.0042, 99.04
702.0, 0.0041, 99.06
703.0, 0.0040, 99.09
704.0, 0.0042, 99.04
705.0, 0.0041, 99.07
706.0, 0.0040, 99.08
707.0, 0.0039, 99.11
708.0, 0.0041, 99.07
709.0, 0.0040, 99.08
710.0, 0.0040, 99.08
711.0, 0.0041, 99.06
712.0, 0.0039, 99.10
713.0, 0.0040, 99.09
714.0, 0.0037, 99.16
715.0, 0.0037, 99.14
716.0, 0.0040, 99.09
717.0, 0.0040, 99.08
718.0, 0.0038, 99.13
719.0, 0.0040, 99.09
720.0, 0.0040, 99.09
721.0, 0.0040, 99.08
722.0, 0.0041, 99.05
723.0, 0.0043, 99.02
724.0, 0.0042, 99.04
725.0, 0.0040, 99.08
726.0, 0.0038, 99.13
727.0, 0.0039, 99.10
728.0, 0.0038, 99.13
729.0, 0.0036, 99.17
730.0, 0.0038, 99.12
731.0, 0.0038, 99.12
732.0, 0.0038, 99.13
733.0, 0.0041, 99.07
734.0, 0.0040, 99.08
735.0, 0.0040, 99.09
736.0, 0.0041, 99.06
737.0, 0.0041, 99.07
738.0, 0.0037, 99.15
739.0, 0.0036, 99.17
740.0, 0.0036, 99.17
741.0, 0.0040, 99.08
742.0, 0.0038, 99.12
743.0, 0.0038, 99.13
744.0, 0.0036, 99.18
745.0, 0.0037, 99.15
746.0, 0.0037, 99.14
747.0, 0.0037, 99.16
748.0, 0.0039, 99.10
749.0, 0.0039, 99.12
750.0, 0.0038, 99.12
751.0, 0.0037, 99.16
752.0, 0.0038, 99.14
753.0, 0.0038, 99.13
754.0, 0.0038, 99.14
755.0, 0.0038, 99.13
756.0, 0.0035, 99.20
757.0, 0.0036, 99.18
758.0, 0.0038, 99.14
759.0, 0.0039, 99.12
760.0, 0.0037, 99.16
761.0, 0.0035, 99.20
762.0, 0.0037, 99.14
763.0, 0.0040, 99.09
764.0, 0.0038, 99.13
765.0, 0.0036, 99.18
766.0, 0.0037, 99.16
767.0, 0.0039, 99.09
768.0, 0.0035, 99.19
769.0, 0.0033, 99.25
770.0, 0.0038, 99.13
771.0, 0.0033, 99.25
772.0, 0.0039, 99.11
773.0, 0.0034, 99.21
774.0, 0.0038, 99.13
775.0, 0.0035, 99.20
776.0, 0.0034, 99.22
777.0, 0.0034, 99.21
778.0, 0.0036, 99.18
779.0, 0.0034, 99.21
780.0, 0.0036, 99.17
781.0, 0.0036, 99.18
782.0, 0.0036, 99.17
783.0, 0.0040, 99.09
784.0, 0.0038, 99.14
785.0, 0.0038, 99.14
786.0, 0.0038, 99.14
787.0, 0.0034, 99.22
788.0, 0.0034, 99.22
789.0, 0.0038, 99.13
790.0, 0.0037, 99.15
791.0, 0.0036, 99.17
792.0, 0.0038, 99.13
793.0, 0.0036, 99.17
794.0, 0.0034, 99.23
795.0, 0.0035, 99.20
796.0, 0.0035, 99.19
797.0, 0.0035, 99.20
798.0, 0.0035, 99.20
799.0, 0.0038, 99.13
800.0, 0.0040, 99.09
801.0, 0.0041, 99.05
802.0, 0.0036, 99.18
803.0, 0.0034, 99.21
804.0, 0.0033, 99.24
805.0, 0.0033, 99.24
806.0, 0.0038, 99.13
807.0, 0.0032, 99.26
808.0, 0.0035, 99.19
809.0, 0.0033, 99.24
810.0, 0.0038, 99.13
811.0, 0.0033, 99.24
812.0, 0.0033, 99.25
813.0, 0.0032, 99.26
814.0, 0.0031, 99.28
815.0, 0.0033, 99.25
816.0, 0.0035, 99.21
817.0, 0.0032, 99.26
818.0, 0.0030, 99.32
819.0, 0.0034, 99.21
820.0, 0.0032, 99.27
821.0, 0.0034, 99.22
822.0, 0.0033, 99.25
823.0, 0.0033, 99.24
824.0, 0.0033, 99.25
825.0, 0.0033, 99.24
826.0, 0.0036, 99.17
827.0, 0.0038, 99.13
828.0, 0.0039, 99.11
829.0, 0.0033, 99.24
830.0, 0.0032, 99.27
831.0, 0.0034, 99.22
832.0, 0.0035, 99.21
833.0, 0.0036, 99.18
834.0, 0.0036, 99.18
835.0, 0.0033, 99.24
836.0, 0.0037, 99.16
837.0, 0.0035, 99.19
838.0, 0.0029, 99.34
839.0, 0.0029, 99.33
840.0, 0.0033, 99.24
841.0, 0.0038, 99.14
842.0, 0.0034, 99.23
843.0, 0.0040, 99.08
844.0, 0.0037, 99.15
845.0, 0.0036, 99.18
846.0, 0.0033, 99.23
847.0, 0.0033, 99.25
848.0, 0.0034, 99.21
849.0, 0.0038, 99.14
850.0, 0.0038, 99.14
851.0, 0.0032, 99.26
852.0, 0.0033, 99.25
853.0, 0.0039, 99.10
854.0, 0.0031, 99.30
855.0, 0.0032, 99.26
856.0, 0.0035, 99.20
857.0, 0.0035, 99.19
858.0, 0.0037, 99.15
859.0, 0.0036, 99.18
860.0, 0.0038, 99.13
861.0, 0.0036, 99.17
862.0, 0.0034, 99.23
863.0, 0.0036, 99.17
864.0, 0.0033, 99.25
865.0, 0.0034, 99.23
866.0, 0.0032, 99.26
867.0, 0.0034, 99.23
868.0, 0.0036, 99.18
869.0, 0.0034, 99.22
870.0, 0.0034, 99.23
871.0, 0.0035, 99.19
872.0, 0.0036, 99.17
873.0, 0.0032, 99.26
874.0, 0.0033, 99.24
875.0, 0.0036, 99.18
876.0, 0.0032, 99.27
877.0, 0.0035, 99.20
878.0, 0.0038, 99.13
879.0, 0.0034, 99.22
880.0, 0.0034, 99.22
881.0, 0.0035, 99.20
882.0, 0.0036, 99.17
883.0, 0.0034, 99.23
884.0, 0.0034, 99.21
885.0, 0.0034, 99.22
886.0, 0.0037, 99.16
887.0, 0.0037, 99.16
888.0, 0.0033, 99.23
889.0, 0.0035, 99.19
890.0, 0.0034, 99.22
891.0, 0.0035, 99.20
892.0, 0.0038, 99.12
893.0, 0.0037, 99.14
894.0, 0.0039, 99.12
895.0, 0.0034, 99.21
896.0, 0.0034, 99.22
897.0, 0.0033, 99.25
898.0, 0.0034, 99.23
899.0, 0.0032, 99.26
900.0, 0.0036, 99.17
901.0, 0.0038, 99.13
902.0, 0.0036, 99.18
903.0, 0.0036, 99.17
904.0, 0.0034, 99.22
905.0, 0.0035, 99.20
906.0, 0.0036, 99.18
907.0, 0.0035, 99.19
908.0, 0.0033, 99.23
909.0, 0.0035, 99.19
910.0, 0.0035, 99.19
911.0, 0.0036, 99.18
912.0, 0.0033, 99.24
913.0, 0.0034, 99.21
914.0, 0.0032, 99.27
915.0, 0.0033, 99.24
916.0, 0.0032, 99.27
917.0, 0.0030, 99.31
918.0, 0.0028, 99.36
919.0, 0.0029, 99.34
920.0, 0.0033, 99.24
921.0, 0.0036, 99.16
922.0, 0.0036, 99.16
923.0, 0.0034, 99.21
924.0, 0.0032, 99.26
925.0, 0.0033, 99.24
926.0, 0.0034, 99.23
927.0, 0.0030, 99.30
928.0, 0.0035, 99.21
929.0, 0.0036, 99.17
930.0, 0.0036, 99.17
931.0, 0.0037, 99.15
932.0, 0.0035, 99.19
933.0, 0.0039, 99.11
934.0, 0.0035, 99.19
935.0, 0.0033, 99.25
936.0, 0.0037, 99.15
937.0, 0.0035, 99.20
938.0, 0.0035, 99.19
939.0, 0.0038, 99.12
940.0, 0.0036, 99.18
941.0, 0.0037, 99.15
942.0, 0.0037, 99.15
943.0, 0.0033, 99.24
944.0, 0.0034, 99.22
945.0, 0.0034, 99.22
946.0, 0.0033, 99.25
947.0, 0.0033, 99.25
948.0, 0.0033, 99.25
949.0, 0.0035, 99.21
950.0, 0.0033, 99.24
951.0, 0.0036, 99.16
952.0, 0.0035, 99.19
953.0, 0.0036, 99.17
954.0, 0.0034, 99.21
955.0, 0.0033, 99.24
956.0, 0.0034, 99.21
957.0, 0.0036, 99.19
958.0, 0.0036, 99.18
959.0, 0.0033, 99.25
960.0, 0.0033, 99.24
961.0, 0.0034, 99.23
962.0, 0.0034, 99.21
963.0, 0.0034, 99.22
964.0, 0.0032, 99.26
965.0, 0.0034, 99.23
966.0, 0.0035, 99.19
967.0, 0.0034, 99.21
968.0, 0.0040, 99.08
969.0, 0.0036, 99.19
970.0, 0.0037, 99.15
971.0, 0.0036, 99.18
972.0, 0.0037, 99.16
973.0, 0.0037, 99.15
974.0, 0.0035, 99.20
975.0, 0.0036, 99.19
976.0, 0.0035, 99.20
977.0, 0.0037, 99.16
978.0, 0.0035, 99.19
979.0, 0.0035, 99.20
980.0, 0.0033, 99.23
981.0, 0.0035, 99.20
982.0, 0.0039, 99.10
983.0, 0.0040, 99.08
984.0, 0.0037, 99.15
985.0, 0.0040, 99.08
986.0, 0.0037, 99.16
987.0, 0.0034, 99.22
988.0, 0.0034, 99.22
989.0, 0.0036, 99.16
990.0, 0.0036, 99.16
991.0, 0.0039, 99.11
992.0, 0.0037, 99.15
993.0, 0.0037, 99.16
994.0, 0.0039, 99.10
995.0, 0.0039, 99.10
996.0, 0.0038, 99.12
997.0, 0.0034, 99.21
998.0, 0.0035, 99.19
999.0, 0.0039, 99.11
1000.0, 0.0041, 99.07
1001.0, 0.0040, 99.09
1002.0, 0.0038, 99.12
1003.0, 0.0043, 99.02
1004.0, 0.0040, 99.09
1005.0, 0.0041, 99.06
1006.0, 0.0039, 99.10
1007.0, 0.0039, 99.11
1008.0, 0.0038, 99.13
1009.0, 0.0039, 99.11
1010.0, 0.0037, 99.16
1011.0, 0.0039, 99.10
1012.0, 0.0039, 99.11
1013.0, 0.0044, 98.99
1014.0, 0.0041, 99.07
1015.0, 0.0040, 99.08
1016.0, 0.0041, 99.06
1017.0, 0.0040, 99.08
1018.0, 0.0041, 99.05
1019.0, 0.0041, 99.06
1020.0, 0.0041, 99.05
1021.0, 0.0041, 99.05
1022.0, 0.0045, 98.97
1023.0, 0.0046, 98.95
1024.0, 0.0049, 98.88
1025.0, 0.0049, 98.88
1026.0, 0.0041, 99.07
1027.0, 0.0044, 98.99
1028.0, 0.0044, 98.98
1029.0, 0.0044, 98.99
1030.0, 0.0043, 99.02
1031.0, 0.0046, 98.94
1032.0, 0.0046, 98.95
1033.0, 0.0045, 98.97
1034.0, 0.0049, 98.89
1035.0, 0.0049, 98.88
1036.0, 0.0051, 98.83
1037.0, 0.0049, 98.88
1038.0, 0.0052, 98.82
1039.0, 0.0051, 98.83
1040.0, 0.0055, 98.75
1041.0, 0.0053, 98.79
1042.0, 0.0050, 98.86
1043.0, 0.0050, 98.86
1044.0, 0.0056, 98.72
1045.0, 0.0052, 98.82
1046.0, 0.0052, 98.80
1047.0, 0.0057, 98.69
1048.0, 0.0055, 98.74
1049.0, 0.0051, 98.83
1050.0, 0.0058, 98.67
1051.0, 0.0063, 98.55
1052.0, 0.0065, 98.53
1053.0, 0.0059, 98.65
1054.0, 0.0061, 98.61
1055.0, 0.0067, 98.47
1056.0, 0.0072, 98.36
1057.0, 0.0065, 98.53
1058.0, 0.0061, 98.60
1059.0, 0.0071, 98.37
1060.0, 0.0079, 98.20
1061.0, 0.0077, 98.25
1062.0, 0.0068, 98.46
1063.0, 0.0067, 98.47
1064.0, 0.0078, 98.22
1065.0, 0.0086, 98.03
1066.0, 0.0083, 98.10
1067.0, 0.0073, 98.33
1068.0, 0.0065, 98.51
1069.0, 0.0086, 98.05
1070.0, 0.0088, 97.99
1071.0, 0.0088, 98.00
1072.0, 0.0081, 98.15
1073.0, 0.0075, 98.29
1074.0, 0.0070, 98.39
1075.0, 0.0074, 98.32
1076.0, 0.0081, 98.16
1077.0, 0.0091, 97.93
1078.0, 0.0101, 97.69
1079.0, 0.0101, 97.71
1080.0, 0.0090, 97.94
1081.0, 0.0082, 98.12
1082.0, 0.0080, 98.17
1083.0, 0.0089, 97.97
1084.0, 0.0103, 97.66
1085.0, 0.0116, 97.37
1086.0, 0.0122, 97.23
1087.0, 0.0129, 97.08
1088.0, 0.0131, 97.03
1089.0, 0.0128, 97.11
1090.0, 0.0121, 97.26
1091.0, 0.0116, 97.36
1092.0, 0.0110, 97.50
1093.0, 0.0104, 97.64
1094.0, 0.0101, 97.69
1095.0, 0.0098, 97.77
1096.0, 0.0098, 97.77
1097.0, 0.0100, 97.72
1098.0, 0.0107, 97.57
1099.0, 0.0105, 97.60
1100.0, 0.0107, 97.58
